Head Speed           0 mph
Ball Speed         150 mph
Launch Angle      14.0 deg
Back Spin         3000 rpm
Deviation Angle    0.0 deg
Side Spin            0 rpm
Distance           257 yds


0.07, 0.02, 0.00
0.66, 0.17, 0.00
1.25, 0.31, 0.00
1.84, 0.46, 0.00
2.43, 0.60, 0.00
3.01, 0.75, 0.00
3.59, 0.90, 0.00
4.17, 1.04, 0.00
4.75, 1.19, 0.00
5.33, 1.33, 0.00
5.91, 1.48, 0.00
6.48, 1.62, 0.00
7.06, 1.77, 0.00
7.63, 1.91, 0.00
8.20, 2.05, 0.00
8.77, 2.20, 0.00
9.34, 2.34, 0.00
9.90, 2.49, 0.00
10.47, 2.63, 0.00
11.03, 2.77, 0.00
11.59, 2.91, 0.00
12.15, 3.06, 0.00
12.71, 3.20, 0.00
13.27, 3.34, 0.00
13.83, 3.48, 0.00
14.38, 3.62, 0.00
14.93, 3.76, 0.00
15.49, 3.90, 0.00
16.04, 4.04, 0.00
16.59, 4.18, 0.00
17.13, 4.32, 0.00
17.68, 4.46, 0.00
18.22, 4.60, 0.00
18.77, 4.74, 0.00
19.31, 4.88, 0.00
19.85, 5.02, 0.00
20.39, 5.16, 0.00
20.93, 5.29, 0.00
21.46, 5.43, 0.00
22.00, 5.57, 0.00
22.53, 5.70, 0.00
23.07, 5.84, 0.00
23.60, 5.98, 0.00
24.13, 6.11, 0.00
24.66, 6.25, 0.00
25.18, 6.38, 0.00
25.71, 6.52, 0.00
26.24, 6.65, 0.00
26.76, 6.79, 0.00
27.28, 6.92, 0.00
27.80, 7.06, 0.00
28.32, 7.19, 0.00
28.84, 7.32, 0.00
29.36, 7.46, 0.00
29.87, 7.59, 0.00
30.39, 7.72, 0.00
30.90, 7.85, 0.00
31.42, 7.98, 0.00
31.93, 8.12, 0.00
32.44, 8.25, 0.00
32.94, 8.38, 0.00
33.45, 8.51, 0.00
33.96, 8.64, 0.00
34.46, 8.77, 0.00
34.97, 8.90, 0.00
35.47, 9.02, 0.00
35.97, 9.15, 0.00
36.47, 9.28, 0.00
36.97, 9.41, 0.00
37.47, 9.54, 0.00
37.97, 9.66, 0.00
38.46, 9.79, 0.00
38.96, 9.92, 0.00
39.45, 10.04, 0.00
39.94, 10.17, 0.00
40.43, 10.29, 0.00
40.92, 10.42, 0.00
41.41, 10.54, 0.00
41.90, 10.67, 0.00
42.39, 10.79, 0.00
42.87, 10.92, 0.00
43.35, 11.04, 0.00
43.84, 11.16, 0.00
44.32, 11.29, 0.00
44.80, 11.41, 0.00
45.28, 11.53, 0.00
45.76, 11.65, 0.00
46.24, 11.77, 0.00
46.71, 11.89, 0.00
47.19, 12.01, 0.00
47.66, 12.13, 0.00
48.14, 12.25, 0.00
48.61, 12.37, 0.00
49.08, 12.49, 0.00
49.55, 12.61, 0.00
50.02, 12.73, 0.00
50.49, 12.85, 0.00
50.95, 12.96, 0.00
51.42, 13.08, 0.00
51.89, 13.20, 0.00
52.35, 13.31, 0.00
52.81, 13.43, 0.00
53.27, 13.55, 0.00
53.74, 13.66, 0.00
54.20, 13.78, 0.00
54.65, 13.89, 0.00
55.11, 14.00, 0.00
55.57, 14.12, 0.00
56.02, 14.23, 0.00
56.48, 14.34, 0.00
56.93, 14.46, 0.00
57.39, 14.57, 0.00
57.84, 14.68, 0.00
58.29, 14.79, 0.00
58.74, 14.90, 0.00
59.19, 15.01, 0.00
59.64, 15.12, 0.00
60.08, 15.23, 0.00
60.53, 15.34, 0.00
60.97, 15.45, 0.00
61.42, 15.56, 0.00
61.86, 15.67, 0.00
62.30, 15.78, 0.00
62.74, 15.88, 0.00
63.18, 15.99, 0.00
63.62, 16.10, 0.00
64.06, 16.20, 0.00
64.50, 16.31, 0.00
64.94, 16.41, 0.00
65.37, 16.52, 0.00
65.81, 16.62, 0.00
66.24, 16.73, 0.00
66.67, 16.83, 0.00
67.11, 16.94, 0.00
67.54, 17.04, 0.00
67.97, 17.14, 0.00
68.40, 17.24, 0.00
68.83, 17.35, 0.00
69.25, 17.45, 0.00
69.68, 17.55, 0.00
70.11, 17.65, 0.00
70.53, 17.75, 0.00
70.96, 17.85, 0.00
71.38, 17.95, 0.00
71.80, 18.05, 0.00
72.22, 18.15, 0.00
72.64, 18.24, 0.00
73.06, 18.34, 0.00
73.48, 18.44, 0.00
73.90, 18.54, 0.00
74.32, 18.63, 0.00
74.73, 18.73, 0.00
75.15, 18.82, 0.00
75.56, 18.92, 0.00
75.98, 19.01, 0.00
76.39, 19.11, 0.00
76.80, 19.20, 0.00
77.22, 19.30, 0.00
77.63, 19.39, 0.00
78.04, 19.48, 0.00
78.44, 19.57, 0.00
78.85, 19.66, 0.00
79.26, 19.76, 0.00
79.67, 19.85, 0.00
80.07, 19.94, 0.00
80.48, 20.03, 0.00
80.88, 20.12, 0.00
81.29, 20.21, 0.00
81.69, 20.30, 0.00
82.09, 20.38, 0.00
82.49, 20.47, 0.00
82.89, 20.56, 0.00
83.29, 20.65, 0.00
83.69, 20.73, 0.00
84.09, 20.82, 0.00
84.48, 20.91, 0.00
84.88, 20.99, 0.00
85.28, 21.08, 0.00
85.67, 21.16, 0.00
86.07, 21.25, 0.00
86.46, 21.33, 0.00
86.85, 21.41, 0.00
87.24, 21.50, 0.00
87.63, 21.58, 0.00
88.02, 21.66, 0.00
88.41, 21.74, 0.00
88.80, 21.82, 0.00
89.19, 21.90, 0.00
89.58, 21.98, 0.00
89.97, 22.06, 0.00
90.35, 22.14, 0.00
90.74, 22.22, 0.00
91.12, 22.30, 0.00
91.51, 22.38, 0.00
91.89, 22.46, 0.00
92.27, 22.54, 0.00
92.65, 22.61, 0.00
93.03, 22.69, 0.00
93.41, 22.76, 0.00
93.79, 22.84, 0.00
94.17, 22.92, 0.00
94.55, 22.99, 0.00
94.93, 23.06, 0.00
95.30, 23.14, 0.00
95.68, 23.21, 0.00
96.06, 23.28, 0.00
96.43, 23.36, 0.00
96.80, 23.43, 0.00
97.18, 23.50, 0.00
97.55, 23.57, 0.00
97.92, 23.64, 0.00
98.29, 23.71, 0.00
98.67, 23.78, 0.00
99.04, 23.85, 0.00
99.40, 23.92, 0.00
99.77, 23.99, 0.00
100.14, 24.06, 0.00
100.51, 24.13, 0.00
100.88, 24.19, 0.00
101.24, 24.26, 0.00
101.61, 24.33, 0.00
101.97, 24.39, 0.00
102.34, 24.46, 0.00
102.70, 24.52, 0.00
103.06, 24.59, 0.00
103.42, 24.65, 0.00
103.79, 24.71, 0.00
104.15, 24.78, 0.00
104.51, 24.84, 0.00
104.87, 24.90, 0.00
105.23, 24.97, 0.00
105.58, 25.03, 0.00
105.94, 25.09, 0.00
106.30, 25.15, 0.00
106.66, 25.21, 0.00
107.01, 25.27, 0.00
107.37, 25.33, 0.00
107.72, 25.39, 0.00
108.08, 25.44, 0.00
108.43, 25.50, 0.00
108.78, 25.56, 0.00
109.13, 25.62, 0.00
109.49, 25.67, 0.00
109.84, 25.73, 0.00
110.19, 25.79, 0.00
110.54, 25.84, 0.00
110.89, 25.90, 0.00
111.24, 25.95, 0.00
111.58, 26.00, 0.00
111.93, 26.06, 0.00
112.28, 26.11, 0.00
112.63, 26.16, 0.00
112.97, 26.22, 0.00
113.32, 26.27, 0.00
113.66, 26.32, 0.00
114.00, 26.37, 0.00
114.35, 26.42, 0.00
114.69, 26.47, 0.00
115.03, 26.52, 0.00
115.38, 26.57, 0.00
115.72, 26.62, 0.00
116.06, 26.66, 0.00
116.40, 26.71, 0.00
116.74, 26.76, 0.00
117.08, 26.81, 0.00
117.41, 26.85, 0.00
117.75, 26.90, 0.00
118.09, 26.94, 0.00
118.43, 26.99, 0.00
118.76, 27.03, 0.00
119.10, 27.08, 0.00
119.43, 27.12, 0.00
119.77, 27.16, 0.00
120.10, 27.21, 0.00
120.44, 27.25, 0.00
120.77, 27.29, 0.00
121.10, 27.33, 0.00
121.43, 27.37, 0.00
121.77, 27.41, 0.00
122.10, 27.45, 0.00
122.43, 27.49, 0.00
122.76, 27.53, 0.00
123.09, 27.57, 0.00
123.42, 27.61, 0.00
123.74, 27.65, 0.00
124.07, 27.68, 0.00
124.40, 27.72, 0.00
124.73, 27.76, 0.00
125.05, 27.79, 0.00
125.38, 27.83, 0.00
125.70, 27.86, 0.00
126.03, 27.90, 0.00
126.35, 27.93, 0.00
126.68, 27.97, 0.00
127.00, 28.00, 0.00
127.32, 28.03, 0.00
127.65, 28.06, 0.00
127.97, 28.10, 0.00
128.29, 28.13, 0.00
128.61, 28.16, 0.00
128.93, 28.19, 0.00
129.25, 28.22, 0.00
129.57, 28.25, 0.00
129.89, 28.28, 0.00
130.21, 28.31, 0.00
130.52, 28.33, 0.00
130.84, 28.36, 0.00
131.16, 28.39, 0.00
131.48, 28.42, 0.00
131.79, 28.44, 0.00
132.11, 28.47, 0.00
132.42, 28.49, 0.00
132.74, 28.52, 0.00
133.05, 28.54, 0.00
133.36, 28.57, 0.00
133.68, 28.59, 0.00
133.99, 28.61, 0.00
134.30, 28.64, 0.00
134.62, 28.66, 0.00
134.93, 28.68, 0.00
135.24, 28.70, 0.00
135.55, 28.72, 0.00
135.86, 28.74, 0.00
136.17, 28.76, 0.00
136.48, 28.78, 0.00
136.79, 28.80, 0.00
137.09, 28.82, 0.00
137.40, 28.84, 0.00
137.71, 28.86, 0.00
138.02, 28.88, 0.00
138.32, 28.89, 0.00
138.63, 28.91, 0.00
138.93, 28.92, 0.00
139.24, 28.94, 0.00
139.54, 28.96, 0.00
139.85, 28.97, 0.00
140.15, 28.98, 0.00
140.46, 29.00, 0.00
140.76, 29.01, 0.00
141.06, 29.02, 0.00
141.36, 29.04, 0.00
141.67, 29.05, 0.00
141.97, 29.06, 0.00
142.27, 29.07, 0.00
142.57, 29.08, 0.00
142.87, 29.09, 0.00
143.17, 29.10, 0.00
143.47, 29.11, 0.00
143.77, 29.12, 0.00
144.06, 29.13, 0.00
144.36, 29.13, 0.00
144.66, 29.14, 0.00
144.96, 29.15, 0.00
145.25, 29.16, 0.00
145.55, 29.16, 0.00
145.85, 29.17, 0.00
146.14, 29.17, 0.00
146.44, 29.18, 0.00
146.73, 29.18, 0.00
147.03, 29.18, 0.00
147.32, 29.19, 0.00
147.61, 29.19, 0.00
147.91, 29.19, 0.00
148.20, 29.19, 0.00
148.49, 29.20, 0.00
148.79, 29.20, 0.00
149.08, 29.20, 0.00
149.37, 29.20, 0.00
149.66, 29.20, 0.00
149.95, 29.20, 0.00
150.24, 29.20, 0.00
150.53, 29.19, 0.00
150.82, 29.19, 0.00
151.11, 29.19, 0.00
151.40, 29.19, 0.00
151.69, 29.18, 0.00
151.97, 29.18, 0.00
152.26, 29.17, 0.00
152.55, 29.17, 0.00
152.83, 29.16, 0.00
153.12, 29.16, 0.00
153.41, 29.15, 0.00
153.69, 29.15, 0.00
153.98, 29.14, 0.00
154.26, 29.13, 0.00
154.55, 29.12, 0.00
154.83, 29.11, 0.00
155.12, 29.11, 0.00
155.40, 29.10, 0.00
155.68, 29.09, 0.00
155.96, 29.08, 0.00
156.25, 29.07, 0.00
156.53, 29.05, 0.00
156.81, 29.04, 0.00
157.09, 29.03, 0.00
157.37, 29.02, 0.00
157.65, 29.00, 0.00
157.93, 28.99, 0.00
158.21, 28.98, 0.00
158.49, 28.96, 0.00
158.77, 28.95, 0.00
159.05, 28.93, 0.00
159.33, 28.92, 0.00
159.61, 28.90, 0.00
159.89, 28.88, 0.00
160.16, 28.87, 0.00
160.44, 28.85, 0.00
160.72, 28.83, 0.00
160.99, 28.81, 0.00
161.27, 28.79, 0.00
161.55, 28.78, 0.00
161.82, 28.76, 0.00
162.10, 28.74, 0.00
162.37, 28.71, 0.00
162.65, 28.69, 0.00
162.92, 28.67, 0.00
163.19, 28.65, 0.00
163.47, 28.63, 0.00
163.74, 28.60, 0.00
164.01, 28.58, 0.00
164.29, 28.56, 0.00
164.56, 28.53, 0.00
164.83, 28.51, 0.00
165.10, 28.48, 0.00
165.37, 28.46, 0.00
165.65, 28.43, 0.00
165.92, 28.41, 0.00
166.19, 28.38, 0.00
166.46, 28.35, 0.00
166.73, 28.32, 0.00
167.00, 28.30, 0.00
167.26, 28.27, 0.00
167.53, 28.24, 0.00
167.80, 28.21, 0.00
168.07, 28.18, 0.00
168.34, 28.15, 0.00
168.61, 28.12, 0.00
168.87, 28.08, 0.00
169.14, 28.05, 0.00
169.41, 28.02, 0.00
169.67, 27.99, 0.00
169.94, 27.95, 0.00
170.20, 27.92, 0.00
170.47, 27.89, 0.00
170.73, 27.85, 0.00
171.00, 27.82, 0.00
171.26, 27.78, 0.00
171.53, 27.75, 0.00
171.79, 27.71, 0.00
172.06, 27.67, 0.00
172.32, 27.64, 0.00
172.58, 27.60, 0.00
172.85, 27.56, 0.00
173.11, 27.52, 0.00
173.37, 27.48, 0.00
173.63, 27.44, 0.00
173.89, 27.40, 0.00
174.16, 27.36, 0.00
174.42, 27.32, 0.00
174.68, 27.28, 0.00
174.94, 27.24, 0.00
175.20, 27.20, 0.00
175.46, 27.16, 0.00
175.72, 27.11, 0.00
175.98, 27.07, 0.00
176.24, 27.02, 0.00
176.49, 26.98, 0.00
176.75, 26.94, 0.00
177.01, 26.89, 0.00
177.27, 26.85, 0.00
177.53, 26.80, 0.00
177.78, 26.75, 0.00
178.04, 26.71, 0.00
178.30, 26.66, 0.00
178.56, 26.61, 0.00
178.81, 26.56, 0.00
179.07, 26.51, 0.00
179.32, 26.46, 0.00
179.58, 26.41, 0.00
179.83, 26.36, 0.00
180.09, 26.31, 0.00
180.34, 26.26, 0.00
180.60, 26.21, 0.00
180.85, 26.16, 0.00
181.11, 26.11, 0.00
181.36, 26.06, 0.00
181.61, 26.00, 0.00
181.87, 25.95, 0.00
182.12, 25.89, 0.00
182.37, 25.84, 0.00
182.63, 25.79, 0.00
182.88, 25.73, 0.00
183.13, 25.67, 0.00
183.38, 25.62, 0.00
183.63, 25.56, 0.00
183.88, 25.50, 0.00
184.14, 25.45, 0.00
184.39, 25.39, 0.00
184.64, 25.33, 0.00
184.89, 25.27, 0.00
185.14, 25.21, 0.00
185.39, 25.15, 0.00
185.64, 25.09, 0.00
185.89, 25.03, 0.00
186.13, 24.97, 0.00
186.38, 24.91, 0.00
186.63, 24.85, 0.00
186.88, 24.79, 0.00
187.13, 24.72, 0.00
187.38, 24.66, 0.00
187.62, 24.60, 0.00
187.87, 24.53, 0.00
188.12, 24.47, 0.00
188.36, 24.40, 0.00
188.61, 24.34, 0.00
188.86, 24.27, 0.00
189.10, 24.21, 0.00
189.35, 24.14, 0.00
189.59, 24.07, 0.00
189.84, 24.00, 0.00
190.09, 23.94, 0.00
190.33, 23.87, 0.00
190.58, 23.80, 0.00
190.82, 23.73, 0.00
191.06, 23.66, 0.00
191.31, 23.59, 0.00
191.55, 23.52, 0.00
191.80, 23.45, 0.00
192.04, 23.38, 0.00
192.28, 23.31, 0.00
192.52, 23.23, 0.00
192.77, 23.16, 0.00
193.01, 23.09, 0.00
193.25, 23.01, 0.00
193.49, 22.94, 0.00
193.74, 22.87, 0.00
193.98, 22.79, 0.00
194.22, 22.72, 0.00
194.46, 22.64, 0.00
194.70, 22.56, 0.00
194.94, 22.49, 0.00
195.18, 22.41, 0.00
195.42, 22.33, 0.00
195.66, 22.26, 0.00
195.90, 22.18, 0.00
196.14, 22.10, 0.00
196.38, 22.02, 0.00
196.62, 21.94, 0.00
196.86, 21.86, 0.00
197.10, 21.78, 0.00
197.34, 21.70, 0.00
197.58, 21.62, 0.00
197.81, 21.54, 0.00
198.05, 21.45, 0.00
198.29, 21.37, 0.00
198.53, 21.29, 0.00
198.76, 21.21, 0.00
199.00, 21.12, 0.00
199.24, 21.04, 0.00
199.47, 20.95, 0.00
199.71, 20.87, 0.00
199.95, 20.78, 0.00
200.18, 20.70, 0.00
200.42, 20.61, 0.00
200.66, 20.52, 0.00
200.89, 20.44, 0.00
201.13, 20.35, 0.00
201.36, 20.26, 0.00
201.60, 20.17, 0.00
201.83, 20.08, 0.00
202.07, 19.99, 0.00
202.30, 19.90, 0.00
202.53, 19.81, 0.00
202.77, 19.72, 0.00
203.00, 19.63, 0.00
203.24, 19.54, 0.00
203.47, 19.45, 0.00
203.70, 19.36, 0.00
203.94, 19.26, 0.00
204.17, 19.17, 0.00
204.40, 19.08, 0.00
204.63, 18.98, 0.00
204.87, 18.89, 0.00
205.10, 18.80, 0.00
205.33, 18.70, 0.00
205.56, 18.60, 0.00
205.79, 18.51, 0.00
206.02, 18.41, 0.00
206.25, 18.32, 0.00
206.49, 18.22, 0.00
206.72, 18.12, 0.00
206.95, 18.02, 0.00
207.18, 17.92, 0.00
207.41, 17.83, 0.00
207.64, 17.73, 0.00
207.87, 17.63, 0.00
208.10, 17.53, 0.00
208.33, 17.43, 0.00
208.56, 17.32, 0.00
208.79, 17.22, 0.00
209.01, 17.12, 0.00
209.24, 17.02, 0.00
209.47, 16.92, 0.00
209.70, 16.81, 0.00
209.93, 16.71, 0.00
210.16, 16.61, 0.00
210.38, 16.50, 0.00
210.61, 16.40, 0.00
210.84, 16.29, 0.00
211.07, 16.19, 0.00
211.29, 16.08, 0.00
211.52, 15.98, 0.00
211.75, 15.87, 0.00
211.97, 15.76, 0.00
212.20, 15.65, 0.00
212.43, 15.55, 0.00
212.65, 15.44, 0.00
212.88, 15.33, 0.00
213.11, 15.22, 0.00
213.33, 15.11, 0.00
213.56, 15.00, 0.00
213.78, 14.89, 0.00
214.01, 14.78, 0.00
214.23, 14.67, 0.00
214.46, 14.56, 0.00
214.68, 14.44, 0.00
214.91, 14.33, 0.00
215.13, 14.22, 0.00
215.36, 14.11, 0.00
215.58, 13.99, 0.00
215.80, 13.88, 0.00
216.03, 13.76, 0.00
216.25, 13.65, 0.00
216.47, 13.53, 0.00
216.70, 13.42, 0.00
216.92, 13.30, 0.00
217.14, 13.19, 0.00
217.37, 13.07, 0.00
217.59, 12.95, 0.00
217.81, 12.83, 0.00
218.03, 12.72, 0.00
218.26, 12.60, 0.00
218.48, 12.48, 0.00
218.70, 12.36, 0.00
218.92, 12.24, 0.00
219.14, 12.12, 0.00
219.36, 12.00, 0.00
219.59, 11.88, 0.00
219.81, 11.76, 0.00
220.03, 11.64, 0.00
220.25, 11.51, 0.00
220.47, 11.39, 0.00
220.69, 11.27, 0.00
220.91, 11.15, 0.00
221.13, 11.02, 0.00
221.35, 10.90, 0.00
221.57, 10.77, 0.00
221.79, 10.65, 0.00
222.01, 10.52, 0.00
222.23, 10.40, 0.00
222.45, 10.27, 0.00
222.67, 10.15, 0.00
222.89, 10.02, 0.00
223.11, 9.89, 0.00
223.33, 9.77, 0.00
223.54, 9.64, 0.00
223.76, 9.51, 0.00
223.98, 9.38, 0.00
224.20, 9.25, 0.00
224.42, 9.12, 0.00
224.64, 8.99, 0.00
224.85, 8.86, 0.00
225.07, 8.73, 0.00
225.29, 8.60, 0.00
225.51, 8.47, 0.00
225.72, 8.34, 0.00
225.94, 8.20, 0.00
226.16, 8.07, 0.00
226.37, 7.94, 0.00
226.59, 7.81, 0.00
226.81, 7.67, 0.00
227.02, 7.54, 0.00
227.24, 7.40, 0.00
227.46, 7.27, 0.00
227.67, 7.13, 0.00
227.89, 7.00, 0.00
228.10, 6.86, 0.00
228.32, 6.72, 0.00
228.54, 6.59, 0.00
228.75, 6.45, 0.00
228.97, 6.31, 0.00
229.18, 6.17, 0.00
229.40, 6.04, 0.00
229.61, 5.90, 0.00
229.83, 5.76, 0.00
230.04, 5.62, 0.00
230.25, 5.48, 0.00
230.47, 5.34, 0.00
230.68, 5.20, 0.00
230.90, 5.06, 0.00
231.11, 4.92, 0.00
231.33, 4.77, 0.00
231.54, 4.63, 0.00
231.75, 4.49, 0.00
231.97, 4.35, 0.00
232.18, 4.20, 0.00
232.39, 4.06, 0.00
232.61, 3.91, 0.00
232.82, 3.77, 0.00
233.03, 3.63, 0.00
233.24, 3.48, 0.00
233.46, 3.33, 0.00
233.67, 3.19, 0.00
233.88, 3.04, 0.00
234.09, 2.90, 0.00
234.31, 2.75, 0.00
234.52, 2.60, 0.00
234.73, 2.45, 0.00
234.94, 2.31, 0.00
235.15, 2.16, 0.00
235.37, 2.01, 0.00
235.58, 1.86, 0.00
235.79, 1.71, 0.00
236.00, 1.56, 0.00
236.21, 1.41, 0.00
236.42, 1.26, 0.00
236.63, 1.11, 0.00
236.84, 0.95, 0.00
237.05, 0.80, 0.00
237.26, 0.65, 0.00
237.48, 0.50, 0.00
237.69, 0.34, 0.00
237.90, 0.19, 0.00
238.11, 0.04, 0.00
238.17, 0.01, 0.00
238.25, 0.08, 0.00
238.33, 0.14, 0.00
238.41, 0.21, 0.00
238.49, 0.27, 0.00
238.57, 0.34, 0.00
238.65, 0.40, 0.00
238.73, 0.46, 0.00
238.81, 0.53, 0.00
238.89, 0.59, 0.00
238.97, 0.65, 0.00
239.04, 0.71, 0.00
239.12, 0.77, 0.00
239.20, 0.82, 0.00
239.28, 0.88, 0.00
239.36, 0.93, 0.00
239.44, 0.99, 0.00
239.52, 1.04, 0.00
239.60, 1.10, 0.00
239.68, 1.15, 0.00
239.76, 1.20, 0.00
239.84, 1.25, 0.00
239.92, 1.30, 0.00
240.00, 1.35, 0.00
240.08, 1.40, 0.00
240.16, 1.44, 0.00
240.24, 1.49, 0.00
240.32, 1.54, 0.00
240.40, 1.58, 0.00
240.47, 1.63, 0.00
240.55, 1.67, 0.00
240.63, 1.71, 0.00
240.71, 1.75, 0.00
240.79, 1.79, 0.00
240.87, 1.83, 0.00
240.95, 1.87, 0.00
241.03, 1.91, 0.00
241.11, 1.95, 0.00
241.19, 1.98, 0.00
241.27, 2.02, 0.00
241.34, 2.05, 0.00
241.42, 2.08, 0.00
241.50, 2.12, 0.00
241.58, 2.15, 0.00
241.66, 2.18, 0.00
241.74, 2.21, 0.00
241.82, 2.24, 0.00
241.90, 2.27, 0.00
241.97, 2.30, 0.00
242.05, 2.32, 0.00
242.13, 2.35, 0.00
242.21, 2.38, 0.00
242.29, 2.40, 0.00
242.37, 2.42, 0.00
242.45, 2.45, 0.00
242.52, 2.47, 0.00
242.60, 2.49, 0.00
242.68, 2.51, 0.00
242.76, 2.53, 0.00
242.84, 2.55, 0.00
242.91, 2.57, 0.00
242.99, 2.58, 0.00
243.07, 2.60, 0.00
243.15, 2.62, 0.00
243.23, 2.63, 0.00
243.30, 2.64, 0.00
243.38, 2.66, 0.00
243.46, 2.67, 0.00
243.54, 2.68, 0.00
243.62, 2.69, 0.00
243.69, 2.70, 0.00
243.77, 2.71, 0.00
243.85, 2.72, 0.00
243.93, 2.73, 0.00
244.00, 2.73, 0.00
244.08, 2.74, 0.00
244.16, 2.74, 0.00
244.23, 2.75, 0.00
244.31, 2.75, 0.00
244.39, 2.75, 0.00
244.47, 2.75, 0.00
244.54, 2.76, 0.00
244.62, 2.76, 0.00
244.70, 2.75, 0.00
244.77, 2.75, 0.00
244.85, 2.75, 0.00
244.93, 2.75, 0.00
245.00, 2.74, 0.00
245.08, 2.74, 0.00
245.16, 2.73, 0.00
245.23, 2.73, 0.00
245.31, 2.72, 0.00
245.39, 2.71, 0.00
245.46, 2.70, 0.00
245.54, 2.69, 0.00
245.62, 2.68, 0.00
245.69, 2.67, 0.00
245.77, 2.66, 0.00
245.84, 2.65, 0.00
245.92, 2.63, 0.00
245.99, 2.62, 0.00
246.07, 2.60, 0.00
246.15, 2.59, 0.00
246.22, 2.57, 0.00
246.30, 2.55, 0.00
246.37, 2.53, 0.00
246.45, 2.52, 0.00
246.52, 2.50, 0.00
246.60, 2.47, 0.00
246.67, 2.45, 0.00
246.75, 2.43, 0.00
246.82, 2.41, 0.00
246.90, 2.38, 0.00
246.97, 2.36, 0.00
247.05, 2.33, 0.00
247.12, 2.31, 0.00
247.20, 2.28, 0.00
247.27, 2.25, 0.00
247.35, 2.22, 0.00
247.42, 2.19, 0.00
247.50, 2.16, 0.00
247.57, 2.13, 0.00
247.64, 2.10, 0.00
247.72, 2.07, 0.00
247.79, 2.04, 0.00
247.87, 2.00, 0.00
247.94, 1.97, 0.00
248.01, 1.93, 0.00
248.09, 1.89, 0.00
248.16, 1.86, 0.00
248.23, 1.82, 0.00
248.31, 1.78, 0.00
248.38, 1.74, 0.00
248.45, 1.70, 0.00
248.53, 1.66, 0.00
248.60, 1.62, 0.00
248.67, 1.58, 0.00
248.75, 1.53, 0.00
248.82, 1.49, 0.00
248.89, 1.44, 0.00
248.96, 1.40, 0.00
249.04, 1.35, 0.00
249.11, 1.30, 0.00
249.18, 1.26, 0.00
249.25, 1.21, 0.00
249.33, 1.16, 0.00
249.40, 1.11, 0.00
249.47, 1.06, 0.00
249.54, 1.00, 0.00
249.61, 0.95, 0.00
249.68, 0.90, 0.00
249.76, 0.84, 0.00
249.83, 0.79, 0.00
249.90, 0.73, 0.00
249.97, 0.68, 0.00
250.04, 0.62, 0.00
250.11, 0.56, 0.00
250.18, 0.50, 0.00
250.25, 0.44, 0.00
250.32, 0.38, 0.00
250.39, 0.32, 0.00
250.46, 0.26, 0.00
250.53, 0.20, 0.00
250.60, 0.14, 0.00
250.68, 0.07, 0.00
250.74, 0.01, 0.00
250.76, 0.00, 0.00
250.80, 0.04, 0.00
250.84, 0.08, 0.00
250.88, 0.11, 0.00
250.92, 0.14, 0.00
250.96, 0.18, 0.00
251.00, 0.21, 0.00
251.04, 0.24, 0.00
251.08, 0.27, 0.00
251.12, 0.30, 0.00
251.16, 0.33, 0.00
251.20, 0.36, 0.00
251.24, 0.39, 0.00
251.28, 0.41, 0.00
251.32, 0.44, 0.00
251.36, 0.46, 0.00
251.40, 0.49, 0.00
251.44, 0.51, 0.00
251.48, 0.53, 0.00
251.52, 0.55, 0.00
251.56, 0.58, 0.00
251.60, 0.60, 0.00
251.64, 0.61, 0.00
251.68, 0.63, 0.00
251.72, 0.65, 0.00
251.76, 0.67, 0.00
251.80, 0.68, 0.00
251.84, 0.70, 0.00
251.88, 0.71, 0.00
251.92, 0.73, 0.00
251.96, 0.74, 0.00
252.00, 0.75, 0.00
252.04, 0.77, 0.00
252.08, 0.78, 0.00
252.12, 0.79, 0.00
252.16, 0.80, 0.00
252.20, 0.80, 0.00
252.24, 0.81, 0.00
252.28, 0.82, 0.00
252.32, 0.82, 0.00
252.36, 0.83, 0.00
252.40, 0.83, 0.00
252.44, 0.84, 0.00
252.48, 0.84, 0.00
252.52, 0.84, 0.00
252.55, 0.84, 0.00
252.59, 0.85, 0.00
252.63, 0.85, 0.00
252.67, 0.84, 0.00
252.71, 0.84, 0.00
252.75, 0.84, 0.00
252.79, 0.84, 0.00
252.83, 0.83, 0.00
252.87, 0.83, 0.00
252.91, 0.82, 0.00
252.95, 0.82, 0.00
252.99, 0.81, 0.00
253.03, 0.80, 0.00
253.07, 0.79, 0.00
253.11, 0.78, 0.00
253.14, 0.77, 0.00
253.18, 0.76, 0.00
253.22, 0.75, 0.00
253.26, 0.74, 0.00
253.30, 0.73, 0.00
253.34, 0.71, 0.00
253.38, 0.70, 0.00
253.42, 0.68, 0.00
253.46, 0.67, 0.00
253.49, 0.65, 0.00
253.53, 0.63, 0.00
253.57, 0.61, 0.00
