Head Speed           0 mph
Ball Speed         153 mph
Launch Angle      13.7 deg
Back Spin         2919 rpm
Deviation Angle    0.0 deg
Side Spin            0 rpm
Distance           263 yds


0.08, 0.02, 0.00
0.68, 0.17, 0.00
1.28, 0.31, 0.00
1.88, 0.46, 0.00
2.48, 0.61, 0.00
3.08, 0.75, 0.00
3.67, 0.90, 0.00
4.27, 1.04, 0.00
4.86, 1.19, 0.00
5.45, 1.33, 0.00
6.04, 1.48, 0.00
6.63, 1.62, 0.00
7.21, 1.77, 0.00
7.80, 1.91, 0.00
8.38, 2.06, 0.00
8.96, 2.20, 0.00
9.54, 2.34, 0.00
10.12, 2.49, 0.00
10.70, 2.63, 0.00
11.27, 2.77, 0.00
11.85, 2.92, 0.00
12.42, 3.06, 0.00
12.99, 3.20, 0.00
13.56, 3.34, 0.00
14.13, 3.49, 0.00
14.69, 3.63, 0.00
15.26, 3.77, 0.00
15.82, 3.91, 0.00
16.39, 4.05, 0.00
16.95, 4.19, 0.00
17.51, 4.33, 0.00
18.06, 4.47, 0.00
18.62, 4.61, 0.00
19.18, 4.75, 0.00
19.73, 4.89, 0.00
20.28, 5.03, 0.00
20.83, 5.16, 0.00
21.38, 5.30, 0.00
21.93, 5.44, 0.00
22.48, 5.58, 0.00
23.02, 5.71, 0.00
23.57, 5.85, 0.00
24.11, 5.99, 0.00
24.65, 6.12, 0.00
25.19, 6.26, 0.00
25.73, 6.40, 0.00
26.27, 6.53, 0.00
26.81, 6.67, 0.00
27.34, 6.80, 0.00
27.87, 6.94, 0.00
28.41, 7.07, 0.00
28.94, 7.20, 0.00
29.47, 7.34, 0.00
30.00, 7.47, 0.00
30.52, 7.60, 0.00
31.05, 7.74, 0.00
31.57, 7.87, 0.00
32.10, 8.00, 0.00
32.62, 8.13, 0.00
33.14, 8.26, 0.00
33.66, 8.39, 0.00
34.18, 8.53, 0.00
34.70, 8.66, 0.00
35.21, 8.79, 0.00
35.73, 8.92, 0.00
36.24, 9.04, 0.00
36.75, 9.17, 0.00
37.26, 9.30, 0.00
37.77, 9.43, 0.00
38.28, 9.56, 0.00
38.79, 9.69, 0.00
39.29, 9.81, 0.00
39.80, 9.94, 0.00
40.30, 10.07, 0.00
40.81, 10.19, 0.00
41.31, 10.32, 0.00
41.81, 10.44, 0.00
42.31, 10.57, 0.00
42.81, 10.70, 0.00
43.30, 10.82, 0.00
43.80, 10.94, 0.00
44.29, 11.07, 0.00
44.79, 11.19, 0.00
45.28, 11.31, 0.00
45.77, 11.44, 0.00
46.26, 11.56, 0.00
46.75, 11.68, 0.00
47.24, 11.80, 0.00
47.72, 11.92, 0.00
48.21, 12.05, 0.00
48.69, 12.17, 0.00
49.18, 12.29, 0.00
49.66, 12.41, 0.00
50.14, 12.53, 0.00
50.62, 12.64, 0.00
51.10, 12.76, 0.00
51.58, 12.88, 0.00
52.06, 13.00, 0.00
52.53, 13.12, 0.00
53.01, 13.23, 0.00
53.48, 13.35, 0.00
53.95, 13.47, 0.00
54.43, 13.58, 0.00
54.90, 13.70, 0.00
55.37, 13.82, 0.00
55.84, 13.93, 0.00
56.30, 14.04, 0.00
56.77, 14.16, 0.00
57.24, 14.27, 0.00
57.70, 14.39, 0.00
58.16, 14.50, 0.00
58.63, 14.61, 0.00
59.09, 14.72, 0.00
59.55, 14.84, 0.00
60.01, 14.95, 0.00
60.47, 15.06, 0.00
60.92, 15.17, 0.00
61.38, 15.28, 0.00
61.84, 15.39, 0.00
62.29, 15.50, 0.00
62.74, 15.61, 0.00
63.20, 15.72, 0.00
63.65, 15.83, 0.00
64.10, 15.93, 0.00
64.55, 16.04, 0.00
65.00, 16.15, 0.00
65.45, 16.26, 0.00
65.89, 16.36, 0.00
66.34, 16.47, 0.00
66.78, 16.57, 0.00
67.23, 16.68, 0.00
67.67, 16.78, 0.00
68.11, 16.89, 0.00
68.55, 16.99, 0.00
69.00, 17.10, 0.00
69.43, 17.20, 0.00
69.87, 17.30, 0.00
70.31, 17.41, 0.00
70.75, 17.51, 0.00
71.18, 17.61, 0.00
71.62, 17.71, 0.00
72.05, 17.81, 0.00
72.49, 17.91, 0.00
72.92, 18.01, 0.00
73.35, 18.11, 0.00
73.78, 18.21, 0.00
74.21, 18.31, 0.00
74.64, 18.41, 0.00
75.07, 18.50, 0.00
75.49, 18.60, 0.00
75.92, 18.70, 0.00
76.35, 18.80, 0.00
76.77, 18.89, 0.00
77.19, 18.99, 0.00
77.62, 19.08, 0.00
78.04, 19.18, 0.00
78.46, 19.27, 0.00
78.88, 19.37, 0.00
79.30, 19.46, 0.00
79.72, 19.55, 0.00
80.14, 19.65, 0.00
80.55, 19.74, 0.00
80.97, 19.83, 0.00
81.38, 19.92, 0.00
81.80, 20.02, 0.00
82.21, 20.11, 0.00
82.62, 20.20, 0.00
83.04, 20.29, 0.00
83.45, 20.38, 0.00
83.86, 20.47, 0.00
84.27, 20.55, 0.00
84.68, 20.64, 0.00
85.08, 20.73, 0.00
85.49, 20.82, 0.00
85.90, 20.90, 0.00
86.30, 20.99, 0.00
86.71, 21.08, 0.00
87.11, 21.16, 0.00
87.52, 21.25, 0.00
87.92, 21.33, 0.00
88.32, 21.42, 0.00
88.72, 21.50, 0.00
89.12, 21.59, 0.00
89.52, 21.67, 0.00
89.92, 21.75, 0.00
90.32, 21.83, 0.00
90.71, 21.92, 0.00
91.11, 22.00, 0.00
91.51, 22.08, 0.00
91.90, 22.16, 0.00
92.30, 22.24, 0.00
92.69, 22.32, 0.00
93.08, 22.40, 0.00
93.47, 22.48, 0.00
93.87, 22.56, 0.00
94.26, 22.63, 0.00
94.65, 22.71, 0.00
95.03, 22.79, 0.00
95.42, 22.87, 0.00
95.81, 22.94, 0.00
96.20, 23.02, 0.00
96.58, 23.09, 0.00
96.97, 23.17, 0.00
97.35, 23.24, 0.00
97.74, 23.32, 0.00
98.12, 23.39, 0.00
98.50, 23.46, 0.00
98.89, 23.54, 0.00
99.27, 23.61, 0.00
99.65, 23.68, 0.00
100.03, 23.75, 0.00
100.41, 23.82, 0.00
100.79, 23.89, 0.00
101.16, 23.96, 0.00
101.54, 24.03, 0.00
101.92, 24.10, 0.00
102.29, 24.17, 0.00
102.67, 24.24, 0.00
103.04, 24.31, 0.00
103.42, 24.38, 0.00
103.79, 24.44, 0.00
104.16, 24.51, 0.00
104.53, 24.58, 0.00
104.91, 24.64, 0.00
105.28, 24.71, 0.00
105.65, 24.77, 0.00
106.02, 24.84, 0.00
106.38, 24.90, 0.00
106.75, 24.96, 0.00
107.12, 25.03, 0.00
107.49, 25.09, 0.00
107.85, 25.15, 0.00
108.22, 25.21, 0.00
108.58, 25.28, 0.00
108.95, 25.34, 0.00
109.31, 25.40, 0.00
109.67, 25.46, 0.00
110.04, 25.52, 0.00
110.40, 25.58, 0.00
110.76, 25.63, 0.00
111.12, 25.69, 0.00
111.48, 25.75, 0.00
111.84, 25.81, 0.00
112.20, 25.86, 0.00
112.55, 25.92, 0.00
112.91, 25.98, 0.00
113.27, 26.03, 0.00
113.62, 26.09, 0.00
113.98, 26.14, 0.00
114.33, 26.20, 0.00
114.69, 26.25, 0.00
115.04, 26.30, 0.00
115.40, 26.36, 0.00
115.75, 26.41, 0.00
116.10, 26.46, 0.00
116.45, 26.51, 0.00
116.80, 26.56, 0.00
117.15, 26.61, 0.00
117.50, 26.66, 0.00
117.85, 26.71, 0.00
118.20, 26.76, 0.00
118.55, 26.81, 0.00
118.90, 26.86, 0.00
119.24, 26.91, 0.00
119.59, 26.96, 0.00
119.93, 27.00, 0.00
120.28, 27.05, 0.00
120.62, 27.10, 0.00
120.97, 27.14, 0.00
121.31, 27.19, 0.00
121.65, 27.23, 0.00
122.00, 27.28, 0.00
122.34, 27.32, 0.00
122.68, 27.36, 0.00
123.02, 27.41, 0.00
123.36, 27.45, 0.00
123.70, 27.49, 0.00
124.04, 27.53, 0.00
124.38, 27.57, 0.00
124.71, 27.61, 0.00
125.05, 27.66, 0.00
125.39, 27.70, 0.00
125.73, 27.73, 0.00
126.06, 27.77, 0.00
126.40, 27.81, 0.00
126.73, 27.85, 0.00
127.07, 27.89, 0.00
127.40, 27.92, 0.00
127.73, 27.96, 0.00
128.07, 28.00, 0.00
128.40, 28.03, 0.00
128.73, 28.07, 0.00
129.06, 28.10, 0.00
129.39, 28.14, 0.00
129.72, 28.17, 0.00
130.05, 28.21, 0.00
130.38, 28.24, 0.00
130.71, 28.27, 0.00
131.04, 28.30, 0.00
131.36, 28.34, 0.00
131.69, 28.37, 0.00
132.02, 28.40, 0.00
132.34, 28.43, 0.00
132.67, 28.46, 0.00
132.99, 28.49, 0.00
133.32, 28.52, 0.00
133.64, 28.54, 0.00
133.97, 28.57, 0.00
134.29, 28.60, 0.00
134.61, 28.63, 0.00
134.94, 28.65, 0.00
135.26, 28.68, 0.00
135.58, 28.71, 0.00
135.90, 28.73, 0.00
136.22, 28.76, 0.00
136.54, 28.78, 0.00
136.86, 28.81, 0.00
137.18, 28.83, 0.00
137.50, 28.85, 0.00
137.81, 28.88, 0.00
138.13, 28.90, 0.00
138.45, 28.92, 0.00
138.77, 28.94, 0.00
139.08, 28.96, 0.00
139.40, 28.98, 0.00
139.71, 29.00, 0.00
140.03, 29.02, 0.00
140.34, 29.04, 0.00
140.66, 29.06, 0.00
140.97, 29.08, 0.00
141.28, 29.09, 0.00
141.59, 29.11, 0.00
141.91, 29.13, 0.00
142.22, 29.15, 0.00
142.53, 29.16, 0.00
142.84, 29.18, 0.00
143.15, 29.19, 0.00
143.46, 29.21, 0.00
143.77, 29.22, 0.00
144.08, 29.23, 0.00
144.39, 29.25, 0.00
144.69, 29.26, 0.00
145.00, 29.27, 0.00
145.31, 29.28, 0.00
145.62, 29.29, 0.00
145.92, 29.31, 0.00
146.23, 29.32, 0.00
146.53, 29.33, 0.00
146.84, 29.34, 0.00
147.14, 29.34, 0.00
147.45, 29.35, 0.00
147.75, 29.36, 0.00
148.06, 29.37, 0.00
148.36, 29.38, 0.00
148.66, 29.38, 0.00
148.96, 29.39, 0.00
149.26, 29.40, 0.00
149.57, 29.40, 0.00
149.87, 29.41, 0.00
150.17, 29.41, 0.00
150.47, 29.41, 0.00
150.77, 29.42, 0.00
151.07, 29.42, 0.00
151.37, 29.42, 0.00
151.66, 29.43, 0.00
151.96, 29.43, 0.00
152.26, 29.43, 0.00
152.56, 29.43, 0.00
152.85, 29.43, 0.00
153.15, 29.43, 0.00
153.45, 29.43, 0.00
153.74, 29.43, 0.00
154.04, 29.43, 0.00
154.33, 29.43, 0.00
154.63, 29.42, 0.00
154.92, 29.42, 0.00
155.22, 29.42, 0.00
155.51, 29.42, 0.00
155.80, 29.41, 0.00
156.10, 29.41, 0.00
156.39, 29.40, 0.00
156.68, 29.40, 0.00
156.97, 29.39, 0.00
157.26, 29.38, 0.00
157.55, 29.38, 0.00
157.84, 29.37, 0.00
158.13, 29.36, 0.00
158.42, 29.35, 0.00
158.71, 29.35, 0.00
159.00, 29.34, 0.00
159.29, 29.33, 0.00
159.58, 29.32, 0.00
159.87, 29.31, 0.00
160.15, 29.30, 0.00
160.44, 29.29, 0.00
160.73, 29.27, 0.00
161.01, 29.26, 0.00
161.30, 29.25, 0.00
161.59, 29.24, 0.00
161.87, 29.22, 0.00
162.16, 29.21, 0.00
162.44, 29.19, 0.00
162.73, 29.18, 0.00
163.01, 29.16, 0.00
163.29, 29.15, 0.00
163.58, 29.13, 0.00
163.86, 29.11, 0.00
164.14, 29.10, 0.00
164.42, 29.08, 0.00
164.71, 29.06, 0.00
164.99, 29.04, 0.00
165.27, 29.02, 0.00
165.55, 29.01, 0.00
165.83, 28.99, 0.00
166.11, 28.97, 0.00
166.39, 28.94, 0.00
166.67, 28.92, 0.00
166.95, 28.90, 0.00
167.23, 28.88, 0.00
167.51, 28.86, 0.00
167.78, 28.83, 0.00
168.06, 28.81, 0.00
168.34, 28.79, 0.00
168.62, 28.76, 0.00
168.89, 28.74, 0.00
169.17, 28.71, 0.00
169.45, 28.69, 0.00
169.72, 28.66, 0.00
170.00, 28.63, 0.00
170.27, 28.61, 0.00
170.55, 28.58, 0.00
170.82, 28.55, 0.00
171.10, 28.52, 0.00
171.37, 28.49, 0.00
171.64, 28.47, 0.00
171.92, 28.44, 0.00
172.19, 28.41, 0.00
172.46, 28.37, 0.00
172.73, 28.34, 0.00
173.01, 28.31, 0.00
173.28, 28.28, 0.00
173.55, 28.25, 0.00
173.82, 28.22, 0.00
174.09, 28.18, 0.00
174.36, 28.15, 0.00
174.63, 28.11, 0.00
174.90, 28.08, 0.00
175.17, 28.04, 0.00
175.44, 28.01, 0.00
175.71, 27.97, 0.00
175.98, 27.94, 0.00
176.25, 27.90, 0.00
176.52, 27.86, 0.00
176.78, 27.83, 0.00
177.05, 27.79, 0.00
177.32, 27.75, 0.00
177.58, 27.71, 0.00
177.85, 27.67, 0.00
178.12, 27.63, 0.00
178.38, 27.59, 0.00
178.65, 27.55, 0.00
178.91, 27.51, 0.00
179.18, 27.47, 0.00
179.44, 27.42, 0.00
179.71, 27.38, 0.00
179.97, 27.34, 0.00
180.24, 27.29, 0.00
180.50, 27.25, 0.00
180.77, 27.21, 0.00
181.03, 27.16, 0.00
181.29, 27.12, 0.00
181.55, 27.07, 0.00
181.82, 27.02, 0.00
182.08, 26.98, 0.00
182.34, 26.93, 0.00
182.60, 26.88, 0.00
182.86, 26.84, 0.00
183.12, 26.79, 0.00
183.38, 26.74, 0.00
183.64, 26.69, 0.00
183.90, 26.64, 0.00
184.16, 26.59, 0.00
184.42, 26.54, 0.00
184.68, 26.49, 0.00
184.94, 26.44, 0.00
185.20, 26.38, 0.00
185.46, 26.33, 0.00
185.72, 26.28, 0.00
185.98, 26.23, 0.00
186.23, 26.17, 0.00
186.49, 26.12, 0.00
186.75, 26.06, 0.00
187.01, 26.01, 0.00
187.26, 25.95, 0.00
187.52, 25.90, 0.00
187.77, 25.84, 0.00
188.03, 25.78, 0.00
188.29, 25.73, 0.00
188.54, 25.67, 0.00
188.80, 25.61, 0.00
189.05, 25.55, 0.00
189.31, 25.49, 0.00
189.56, 25.44, 0.00
189.81, 25.38, 0.00
190.07, 25.32, 0.00
190.32, 25.25, 0.00
190.58, 25.19, 0.00
190.83, 25.13, 0.00
191.08, 25.07, 0.00
191.33, 25.01, 0.00
191.59, 24.95, 0.00
191.84, 24.88, 0.00
192.09, 24.82, 0.00
192.34, 24.75, 0.00
192.59, 24.69, 0.00
192.85, 24.62, 0.00
193.10, 24.56, 0.00
193.35, 24.49, 0.00
193.60, 24.43, 0.00
193.85, 24.36, 0.00
194.10, 24.29, 0.00
194.35, 24.23, 0.00
194.60, 24.16, 0.00
194.85, 24.09, 0.00
195.09, 24.02, 0.00
195.34, 23.95, 0.00
195.59, 23.88, 0.00
195.84, 23.81, 0.00
196.09, 23.74, 0.00
196.34, 23.67, 0.00
196.58, 23.60, 0.00
196.83, 23.53, 0.00
197.08, 23.45, 0.00
197.33, 23.38, 0.00
197.57, 23.31, 0.00
197.82, 23.23, 0.00
198.06, 23.16, 0.00
198.31, 23.09, 0.00
198.56, 23.01, 0.00
198.80, 22.94, 0.00
199.05, 22.86, 0.00
199.29, 22.78, 0.00
199.54, 22.71, 0.00
199.78, 22.63, 0.00
200.03, 22.55, 0.00
200.27, 22.47, 0.00
200.51, 22.40, 0.00
200.76, 22.32, 0.00
201.00, 22.24, 0.00
201.25, 22.16, 0.00
201.49, 22.08, 0.00
201.73, 22.00, 0.00
201.97, 21.92, 0.00
202.22, 21.84, 0.00
202.46, 21.75, 0.00
202.70, 21.67, 0.00
202.94, 21.59, 0.00
203.18, 21.51, 0.00
203.43, 21.42, 0.00
203.67, 21.34, 0.00
203.91, 21.26, 0.00
204.15, 21.17, 0.00
204.39, 21.09, 0.00
204.63, 21.00, 0.00
204.87, 20.91, 0.00
205.11, 20.83, 0.00
205.35, 20.74, 0.00
205.59, 20.65, 0.00
205.83, 20.57, 0.00
206.07, 20.48, 0.00
206.31, 20.39, 0.00
206.55, 20.30, 0.00
206.78, 20.21, 0.00
207.02, 20.12, 0.00
207.26, 20.03, 0.00
207.50, 19.94, 0.00
207.74, 19.85, 0.00
207.97, 19.76, 0.00
208.21, 19.67, 0.00
208.45, 19.57, 0.00
208.69, 19.48, 0.00
208.92, 19.39, 0.00
209.16, 19.29, 0.00
209.40, 19.20, 0.00
209.63, 19.11, 0.00
209.87, 19.01, 0.00
210.10, 18.92, 0.00
210.34, 18.82, 0.00
210.57, 18.72, 0.00
210.81, 18.63, 0.00
211.05, 18.53, 0.00
211.28, 18.43, 0.00
211.51, 18.34, 0.00
211.75, 18.24, 0.00
211.98, 18.14, 0.00
212.22, 18.04, 0.00
212.45, 17.94, 0.00
212.69, 17.84, 0.00
212.92, 17.74, 0.00
213.15, 17.64, 0.00
213.39, 17.54, 0.00
213.62, 17.44, 0.00
213.85, 17.34, 0.00
214.08, 17.23, 0.00
214.32, 17.13, 0.00
214.55, 17.03, 0.00
214.78, 16.92, 0.00
215.01, 16.82, 0.00
215.24, 16.72, 0.00
215.48, 16.61, 0.00
215.71, 16.51, 0.00
215.94, 16.40, 0.00
216.17, 16.29, 0.00
216.40, 16.19, 0.00
216.63, 16.08, 0.00
216.86, 15.97, 0.00
217.09, 15.87, 0.00
217.32, 15.76, 0.00
217.55, 15.65, 0.00
217.78, 15.54, 0.00
218.01, 15.43, 0.00
218.24, 15.32, 0.00
218.47, 15.21, 0.00
218.70, 15.10, 0.00
218.93, 14.99, 0.00
219.16, 14.88, 0.00
219.39, 14.77, 0.00
219.61, 14.66, 0.00
219.84, 14.54, 0.00
220.07, 14.43, 0.00
220.30, 14.32, 0.00
220.53, 14.20, 0.00
220.75, 14.09, 0.00
220.98, 13.97, 0.00
221.21, 13.86, 0.00
221.44, 13.74, 0.00
221.66, 13.63, 0.00
221.89, 13.51, 0.00
222.12, 13.40, 0.00
222.34, 13.28, 0.00
222.57, 13.16, 0.00
222.80, 13.04, 0.00
223.02, 12.92, 0.00
223.25, 12.81, 0.00
223.47, 12.69, 0.00
223.70, 12.57, 0.00
223.92, 12.45, 0.00
224.15, 12.33, 0.00
224.37, 12.21, 0.00
224.60, 12.09, 0.00
224.82, 11.97, 0.00
225.05, 11.84, 0.00
225.27, 11.72, 0.00
225.50, 11.60, 0.00
225.72, 11.48, 0.00
225.94, 11.35, 0.00
226.17, 11.23, 0.00
226.39, 11.10, 0.00
226.62, 10.98, 0.00
226.84, 10.86, 0.00
227.06, 10.73, 0.00
227.29, 10.60, 0.00
227.51, 10.48, 0.00
227.73, 10.35, 0.00
227.95, 10.22, 0.00
228.18, 10.10, 0.00
228.40, 9.97, 0.00
228.62, 9.84, 0.00
228.84, 9.71, 0.00
229.06, 9.58, 0.00
229.29, 9.45, 0.00
229.51, 9.33, 0.00
229.73, 9.20, 0.00
229.95, 9.06, 0.00
230.17, 8.93, 0.00
230.39, 8.80, 0.00
230.61, 8.67, 0.00
230.83, 8.54, 0.00
231.05, 8.41, 0.00
231.28, 8.27, 0.00
231.50, 8.14, 0.00
231.72, 8.01, 0.00
231.94, 7.87, 0.00
232.16, 7.74, 0.00
232.38, 7.60, 0.00
232.60, 7.47, 0.00
232.81, 7.33, 0.00
233.03, 7.20, 0.00
233.25, 7.06, 0.00
233.47, 6.92, 0.00
233.69, 6.79, 0.00
233.91, 6.65, 0.00
234.13, 6.51, 0.00
234.35, 6.37, 0.00
234.57, 6.24, 0.00
234.78, 6.10, 0.00
235.00, 5.96, 0.00
235.22, 5.82, 0.00
235.44, 5.68, 0.00
235.66, 5.54, 0.00
235.87, 5.40, 0.00
236.09, 5.25, 0.00
236.31, 5.11, 0.00
236.52, 4.97, 0.00
236.74, 4.83, 0.00
236.96, 4.69, 0.00
237.18, 4.54, 0.00
237.39, 4.40, 0.00
237.61, 4.26, 0.00
237.83, 4.11, 0.00
238.04, 3.97, 0.00
238.26, 3.82, 0.00
238.47, 3.68, 0.00
238.69, 3.53, 0.00
238.91, 3.38, 0.00
239.12, 3.24, 0.00
239.34, 3.09, 0.00
239.55, 2.94, 0.00
239.77, 2.80, 0.00
239.98, 2.65, 0.00
240.20, 2.50, 0.00
240.41, 2.35, 0.00
240.63, 2.20, 0.00
240.84, 2.05, 0.00
241.06, 1.90, 0.00
241.27, 1.75, 0.00
241.49, 1.60, 0.00
241.70, 1.45, 0.00
241.91, 1.30, 0.00
242.13, 1.15, 0.00
242.34, 0.99, 0.00
242.56, 0.84, 0.00
242.77, 0.69, 0.00
242.98, 0.53, 0.00
243.20, 0.38, 0.00
243.41, 0.23, 0.00
243.62, 0.07, 0.00
243.74, 0.01, 0.00
243.82, 0.08, 0.00
243.90, 0.14, 0.00
243.98, 0.21, 0.00
244.06, 0.27, 0.00
244.14, 0.34, 0.00
244.22, 0.40, 0.00
244.30, 0.47, 0.00
244.38, 0.53, 0.00
244.46, 0.59, 0.00
244.54, 0.65, 0.00
244.62, 0.71, 0.00
244.70, 0.77, 0.00
244.78, 0.82, 0.00
244.86, 0.88, 0.00
244.94, 0.94, 0.00
245.02, 0.99, 0.00
245.11, 1.04, 0.00
245.19, 1.10, 0.00
245.27, 1.15, 0.00
245.35, 1.20, 0.00
245.43, 1.25, 0.00
245.51, 1.30, 0.00
245.59, 1.35, 0.00
245.67, 1.40, 0.00
245.75, 1.45, 0.00
245.83, 1.49, 0.00
245.91, 1.54, 0.00
245.99, 1.58, 0.00
246.07, 1.63, 0.00
246.15, 1.67, 0.00
246.23, 1.71, 0.00
246.31, 1.75, 0.00
246.39, 1.79, 0.00
246.47, 1.83, 0.00
246.54, 1.87, 0.00
246.62, 1.91, 0.00
246.70, 1.95, 0.00
246.78, 1.98, 0.00
246.86, 2.02, 0.00
246.94, 2.05, 0.00
247.02, 2.09, 0.00
247.10, 2.12, 0.00
247.18, 2.15, 0.00
247.26, 2.18, 0.00
247.34, 2.21, 0.00
247.42, 2.24, 0.00
247.50, 2.27, 0.00
247.58, 2.30, 0.00
247.66, 2.33, 0.00
247.74, 2.35, 0.00
247.82, 2.38, 0.00
247.90, 2.40, 0.00
247.97, 2.43, 0.00
248.05, 2.45, 0.00
248.13, 2.47, 0.00
248.21, 2.49, 0.00
248.29, 2.51, 0.00
248.37, 2.53, 0.00
248.45, 2.55, 0.00
248.53, 2.57, 0.00
248.61, 2.58, 0.00
248.68, 2.60, 0.00
248.76, 2.62, 0.00
248.84, 2.63, 0.00
248.92, 2.64, 0.00
249.00, 2.66, 0.00
249.08, 2.67, 0.00
249.15, 2.68, 0.00
249.23, 2.69, 0.00
249.31, 2.70, 0.00
249.39, 2.71, 0.00
249.47, 2.72, 0.00
249.55, 2.72, 0.00
249.62, 2.73, 0.00
249.70, 2.74, 0.00
249.78, 2.74, 0.00
249.86, 2.75, 0.00
249.94, 2.75, 0.00
250.01, 2.75, 0.00
250.09, 2.75, 0.00
250.17, 2.75, 0.00
250.25, 2.75, 0.00
250.32, 2.75, 0.00
250.40, 2.75, 0.00
250.48, 2.75, 0.00
250.56, 2.74, 0.00
250.63, 2.74, 0.00
250.71, 2.74, 0.00
250.79, 2.73, 0.00
250.86, 2.72, 0.00
250.94, 2.72, 0.00
251.02, 2.71, 0.00
251.09, 2.70, 0.00
251.17, 2.69, 0.00
251.25, 2.68, 0.00
251.33, 2.67, 0.00
251.40, 2.65, 0.00
251.48, 2.64, 0.00
251.55, 2.63, 0.00
251.63, 2.61, 0.00
251.71, 2.60, 0.00
251.78, 2.58, 0.00
251.86, 2.56, 0.00
251.94, 2.55, 0.00
252.01, 2.53, 0.00
252.09, 2.51, 0.00
252.16, 2.49, 0.00
252.24, 2.47, 0.00
252.32, 2.45, 0.00
252.39, 2.42, 0.00
252.47, 2.40, 0.00
252.54, 2.38, 0.00
252.62, 2.35, 0.00
252.69, 2.33, 0.00
252.77, 2.30, 0.00
252.84, 2.27, 0.00
252.92, 2.24, 0.00
252.99, 2.22, 0.00
253.07, 2.19, 0.00
253.14, 2.16, 0.00
253.22, 2.12, 0.00
253.29, 2.09, 0.00
253.37, 2.06, 0.00
253.44, 2.03, 0.00
253.52, 1.99, 0.00
253.59, 1.96, 0.00
253.66, 1.92, 0.00
253.74, 1.88, 0.00
253.81, 1.85, 0.00
253.89, 1.81, 0.00
253.96, 1.77, 0.00
254.03, 1.73, 0.00
254.11, 1.69, 0.00
254.18, 1.65, 0.00
254.25, 1.61, 0.00
254.33, 1.56, 0.00
254.40, 1.52, 0.00
254.47, 1.47, 0.00
254.55, 1.43, 0.00
254.62, 1.38, 0.00
254.69, 1.34, 0.00
254.77, 1.29, 0.00
254.84, 1.24, 0.00
254.91, 1.19, 0.00
254.98, 1.14, 0.00
255.06, 1.09, 0.00
255.13, 1.04, 0.00
255.20, 0.99, 0.00
255.27, 0.94, 0.00
255.34, 0.88, 0.00
255.42, 0.83, 0.00
255.49, 0.77, 0.00
255.56, 0.72, 0.00
255.63, 0.66, 0.00
255.70, 0.60, 0.00
255.77, 0.54, 0.00
255.85, 0.49, 0.00
255.92, 0.43, 0.00
255.99, 0.37, 0.00
256.06, 0.30, 0.00
256.13, 0.24, 0.00
256.20, 0.18, 0.00
256.27, 0.12, 0.00
256.34, 0.05, 0.00
256.41, 0.00, 0.00
256.45, 0.04, 0.00
256.49, 0.08, 0.00
256.53, 0.11, 0.00
256.57, 0.14, 0.00
256.61, 0.18, 0.00
256.65, 0.21, 0.00
256.69, 0.24, 0.00
256.73, 0.27, 0.00
256.77, 0.30, 0.00
256.81, 0.33, 0.00
256.85, 0.36, 0.00
256.89, 0.39, 0.00
256.93, 0.41, 0.00
256.97, 0.44, 0.00
257.01, 0.46, 0.00
257.05, 0.49, 0.00
257.09, 0.51, 0.00
257.13, 0.53, 0.00
257.17, 0.55, 0.00
257.21, 0.58, 0.00
257.25, 0.60, 0.00
257.30, 0.62, 0.00
257.34, 0.63, 0.00
257.38, 0.65, 0.00
257.42, 0.67, 0.00
257.46, 0.68, 0.00
257.50, 0.70, 0.00
257.54, 0.72, 0.00
257.58, 0.73, 0.00
257.62, 0.74, 0.00
257.66, 0.75, 0.00
257.70, 0.77, 0.00
257.74, 0.78, 0.00
257.78, 0.79, 0.00
257.82, 0.80, 0.00
257.86, 0.80, 0.00
257.90, 0.81, 0.00
257.94, 0.82, 0.00
257.98, 0.83, 0.00
258.02, 0.83, 0.00
258.06, 0.84, 0.00
258.10, 0.84, 0.00
258.14, 0.84, 0.00
258.18, 0.84, 0.00
258.22, 0.85, 0.00
258.26, 0.85, 0.00
258.29, 0.85, 0.00
258.33, 0.85, 0.00
258.37, 0.84, 0.00
258.41, 0.84, 0.00
258.45, 0.84, 0.00
258.49, 0.83, 0.00
258.53, 0.83, 0.00
258.57, 0.82, 0.00
258.61, 0.82, 0.00
258.65, 0.81, 0.00
258.69, 0.80, 0.00
258.73, 0.79, 0.00
258.77, 0.78, 0.00
258.81, 0.77, 0.00
258.85, 0.76, 0.00
258.89, 0.75, 0.00
258.93, 0.74, 0.00
258.97, 0.73, 0.00
259.00, 0.71, 0.00
259.04, 0.70, 0.00
259.08, 0.68, 0.00
259.12, 0.67, 0.00
